***SENSOR SELECTION
CH 1-Voltage(±1V)
CH 2-Voltage(±1V)
CH 3-Voltage(±1V)
*** Sampling Rate 
1 Data Per 1 Min
*** Duration to Monitor  
1 Day
Start: 12-DEC-2022  02:52PM
Time(s),V,V,V
0,0.525559,0.027156,0.619808
60,0.543663,0.785942,0.753993
120,0.542598,0.801917,0.777955
180,0.536741,0.809904,0.789137
240,0.527689,0.815761,0.795527
300,0.516507,0.820021,0.800319
360,0.506390,0.823216,0.804047
420,0.498935,0.825346,0.806177
480,0.492013,0.826943,0.808307
540,0.485623,0.828541,0.809372
600,0.479765,0.829606,0.810436
660,0.474441,0.830138,0.810969
720,0.468583,0.830671,0.811501
780,0.463259,0.831203,0.811501
840,0.457401,0.831203,0.811501
900,0.451544,0.831203,0.811501
960,0.445687,0.831736,0.810969
1020,0.439829,0.831736,0.810969
1080,0.434505,0.831203,0.810436
1140,0.428647,0.831203,0.810436
1200,0.422790,0.831203,0.810436
1260,0.417465,0.831203,0.809904
1320,0.412673,0.831203,0.809904
1380,0.407881,0.830671,0.809904
1440,0.403088,0.830671,0.810436
1500,0.398296,0.830671,0.810969
1560,0.394036,0.830671,0.812034
1620,0.390309,0.831203,0.813099
1680,0.382321,0.831203,0.813631
1740,0.380724,0.831203,0.814696
1800,0.376464,0.831736,0.815229
1860,0.372204,0.831736,0.815761
1920,0.368477,0.831736,0.816826
1980,0.364217,0.831736,0.817359
2040,0.360490,0.831736,0.818424
2100,0.356230,0.832268,0.818956
2160,0.352503,0.832268,0.819489
2220,0.348775,0.832268,0.820554
2280,0.345048,0.832268,0.821086
2340,0.341320,0.832268,0.821619
2400,0.338126,0.832268,0.822684
2460,0.334398,0.832268,0.823216
2520,0.330671,0.832268,0.823749
2580,0.326943,0.832801,0.824281
2640,0.323749,0.832801,0.824813
2700,0.320021,0.832801,0.825346
2760,0.316826,0.833333,0.825878
2820,0.313631,0.833333,0.826411
2880,0.310436,0.833866,0.826943
2940,0.307242,0.833866,0.828008
3000,0.304047,0.834398,0.828541
3060,0.300852,0.834398,0.829073
3120,0.297657,0.834931,0.829606
3180,0.294995,0.835463,0.830671
3240,0.291800,0.835463,0.831203
3300,0.288605,0.835996,0.832268
3360,0.285410,0.836528,0.832801
3420,0.282215,0.837061,0.833333
3480,0.279020,0.837061,0.834398
3540,0.276358,0.837593,0.835463
3600,0.273163,0.838126,0.835996
3660,0.270500,0.838126,0.836528
3720,0.267838,0.838658,0.837061
3780,0.264643,0.839190,0.837593
3840,0.261981,0.839723,0.838658
3900,0.259318,0.839723,0.839190
3960,0.256123,0.840255,0.840255
4020,0.253461,0.840788,0.841853
4080,0.250266,0.841320,0.842385
4140,0.247604,0.841320,0.842918
4200,0.244409,0.841853,0.843983
4260,0.241746,0.842385,0.844515
4320,0.239084,0.842918,0.845048
4380,0.235889,0.842918,0.845580
4440,0.233227,0.842918,0.846113
4500,0.230032,0.843450,0.846645
4560,0.227902,0.843983,0.847178
4620,0.225239,0.843983,0.847710
4680,0.222577,0.843983,0.848243
4740,0.219915,0.843983,0.848243
4800,0.217252,0.844515,0.848775
4860,0.214590,0.844515,0.849308
4920,0.212460,0.844515,0.849308
4980,0.209797,0.844515,0.849840
5040,0.207668,0.844515,0.850373
5100,0.205005,0.844515,0.850905
5160,0.202875,0.844515,0.850905
5220,0.200745,0.843983,0.851438
5280,0.198615,0.843983,0.851438
5340,0.195953,0.843983,0.851970
5400,0.193823,0.843983,0.851970
5460,0.191693,0.843983,0.852503
5520,0.189563,0.843450,0.853035
5580,0.187433,0.843450,0.853035
5640,0.185836,0.843450,0.853035
5700,0.183706,0.843450,0.853567
5760,0.181576,0.842918,0.853567
5820,0.179446,0.843450,0.853567
5880,0.177849,0.843450,0.853567
5940,0.175719,0.842918,0.853567
6000,0.173589,0.843450,0.854100
6060,0.171991,0.842918,0.854100
6120,0.169861,0.842918,0.854632
6180,0.168796,0.842385,0.854632
6240,0.167199,0.842385,0.854632
6300,0.166134,0.842385,0.854632
6360,0.164537,0.842385,0.854632
6420,0.162939,0.842385,0.855165
6480,0.161874,0.842385,0.855165
6540,0.160277,0.842385,0.855697
6600,0.158679,0.842385,0.855697
6660,0.157082,0.842385,0.855697
6720,0.155484,0.842385,0.855697
6780,0.154419,0.842385,0.855697
6840,0.152822,0.841853,0.855697
6900,0.151225,0.841320,0.855697
6960,0.149627,0.840788,0.855697
7020,0.148562,0.840788,0.855697
7080,0.147497,0.840255,0.855697
7140,0.146432,0.840255,0.855697
7200,0.144835,0.839723,0.855697
7260,0.143770,0.839723,0.855697
7320,0.142172,0.839723,0.855697
7380,0.141107,0.839190,0.855165
7440,0.139510,0.839190,0.855697
7500,0.138445,0.839723,0.855697
7560,0.137380,0.839723,0.855165
7620,0.136315,0.840255,0.855165
7680,0.135250,0.840255,0.855165
7740,0.134718,0.840255,0.855165
7800,0.134185,0.839723,0.854632
7860,0.133120,0.839723,0.854100
7920,0.132588,0.839190,0.853035
7980,0.132055,0.838658,0.852503
8040,0.130990,0.838126,0.851970
8100,0.130458,0.838126,0.851438
8160,0.129925,0.837593,0.851438
8220,0.128328,0.837061,0.850905
8280,0.127795,0.837061,0.850905
8340,0.126730,0.837061,0.850905
8400,0.126198,0.836528,0.850905
8460,0.125133,0.836528,0.850905
8520,0.124600,0.836528,0.850373
8580,0.123535,0.836528,0.849840
8640,0.123003,0.836528,0.849308
8700,0.122471,0.836528,0.848775
8760,0.118743,0.835996,0.848243
8820,0.116613,0.835996,0.848243
8880,0.116613,0.835996,0.847710
8940,0.116613,0.835463,0.847710
9000,0.116613,0.835463,0.847178
9060,0.116081,0.835463,0.847178
9120,0.115016,0.834931,0.847178
9180,0.114483,0.834931,0.847178
9240,0.113951,0.834398,0.847710
9300,0.113418,0.834931,0.847710
9360,0.112886,0.834931,0.847710
9420,0.112353,0.834931,0.847710
9480,0.111821,0.834931,0.847710
9540,0.109691,0.834931,0.847710
9600,0.109158,0.834931,0.847178
9660,0.108626,0.834931,0.847178
9720,0.108094,0.834398,0.847178
9780,0.107029,0.833333,0.847710
9840,0.103834,0.832268,0.847710
9900,0.100106,0.831736,0.848243
9960,0.097976,0.830671,0.848243
10020,0.098509,0.830138,0.847710
10080,0.099041,0.829073,0.846645
10140,0.099041,0.828541,0.846113
10200,0.099041,0.828541,0.845580
10260,0.099041,0.828008,0.845048
10320,0.098509,0.827476,0.844515
10380,0.097976,0.826943,0.843983
10440,0.097444,0.826411,0.843450
10500,0.097444,0.826411,0.842918
10560,0.096911,0.826411,0.842385
10620,0.096379,0.826411,0.842385
10680,0.095314,0.825878,0.842385
10740,0.094781,0.825878,0.841853
10800,0.094249,0.825346,0.841853
10860,0.093717,0.824813,0.841320
10920,0.093184,0.824281,0.840788
10980,0.092652,0.823749,0.840788
11040,0.092119,0.823749,0.840255
11100,0.091587,0.823216,0.839723
11160,0.091054,0.823749,0.839190
11220,0.090522,0.823216,0.839190
11280,0.089989,0.822684,0.839190
11340,0.089457,0.822151,0.838658
11400,0.088924,0.821619,0.838658
11460,0.088392,0.820554,0.838658
11520,0.087859,0.819489,0.838658
11580,0.087327,0.818956,0.838658
11640,0.086794,0.817891,0.838126
11700,0.085729,0.817359,0.837593
11760,0.085197,0.817359,0.837061
11820,0.084132,0.816826,0.835996
11880,0.083067,0.816294,0.835463
11940,0.082534,0.816294,0.834931
12000,0.081469,0.816294,0.834398
12060,0.080937,0.816294,0.833866
12120,0.080404,0.815761,0.833333
12180,0.079872,0.815761,0.832801
12240,0.079872,0.815229,0.832801
12300,0.078807,0.814696,0.832268
12360,0.078275,0.814164,0.831736
12420,0.077742,0.813631,0.831736
12480,0.077210,0.812566,0.831203
12540,0.076145,0.812034,0.831203
12600,0.076145,0.810436,0.830671
12660,0.075612,0.809904,0.830138
12720,0.075080,0.808839,0.830138
12780,0.074547,0.807774,0.830138
12840,0.074547,0.807242,0.829606
12900,0.074015,0.806709,0.829606
12960,0.073482,0.806177,0.829606
13020,0.072950,0.805644,0.829606
13080,0.072950,0.805112,0.829073
13140,0.072417,0.805112,0.828541
13200,0.071885,0.804579,0.828541
13260,0.071885,0.804579,0.828008
13320,0.070820,0.804579,0.827476
13380,0.070820,0.804579,0.826943
13440,0.070287,0.804579,0.826411
13500,0.069755,0.804047,0.825878
13560,0.069222,0.803514,0.825346
13620,0.068690,0.802982,0.824281
13680,0.068690,0.802449,0.823216
13740,0.068157,0.801917,0.822151
13800,0.068157,0.800852,0.821086
13860,0.067625,0.799787,0.820021
13920,0.067092,0.798189,0.819489
13980,0.067092,0.797124,0.818424
14040,0.066560,0.796059,0.817891
14100,0.066027,0.794995,0.816826
14160,0.065495,0.793930,0.816294
14220,0.064963,0.792865,0.815761
14280,0.064430,0.792332,0.815229
14340,0.063365,0.791800,0.815229
14400,0.063365,0.791267,0.814696
14460,0.062833,0.790735,0.814164
14520,0.062300,0.789137,0.813099
14580,0.061768,0.788605,0.813631
14640,0.061235,0.787007,0.813099
14700,0.061235,0.785410,0.813099
14760,0.060703,0.783812,0.812034
14820,0.060703,0.781682,0.811501
14880,0.060170,0.780085,0.810436
14940,0.060170,0.778488,0.809904
15000,0.059638,0.776890,0.809372
15060,0.059638,0.775825,0.808839
15120,0.059105,0.774228,0.808307
15180,0.058573,0.773163,0.808307
15240,0.058573,0.772630,0.807774
15300,0.058040,0.771565,0.807242
15360,0.058040,0.771033,0.806177
15420,0.057508,0.770500,0.805644
15480,0.056975,0.769968,0.805112
15540,0.056975,0.768903,0.804579
15600,0.056975,0.767838,0.803514
15660,0.056443,0.766773,0.802449
15720,0.055910,0.765176,0.801384
15780,0.055910,0.764111,0.800319
15840,0.055378,0.763046,0.798722
15900,0.055378,0.761981,0.797124
15960,0.054845,0.760916,0.796059
16020,0.054845,0.759851,0.794462
16080,0.054313,0.759318,0.793397
16140,0.054313,0.758253,0.792332
16200,0.053780,0.758253,0.791800
16260,0.053780,0.757721,0.790735
16320,0.053248,0.756656,0.790735
16380,0.053248,0.756123,0.789670
16440,0.052715,0.755591,0.789137
16500,0.052183,0.755058,0.788605
16560,0.051118,0.754526,0.788605
16620,0.051118,0.753993,0.787540
16680,0.050586,0.752928,0.787540
16740,0.050053,0.751331,0.786475
16800,0.050053,0.750266,0.785942
16860,0.049521,0.749201,0.784877
16920,0.049521,0.748136,0.784877
16980,0.048988,0.747604,0.784345
17040,0.048456,0.746539,0.783812
17100,0.048456,0.746006,0.783812
17160,0.047923,0.745474,0.783280
17220,0.047923,0.744941,0.783280
17280,0.047391,0.743876,0.782747
17340,0.046858,0.743344,0.782747
17400,0.046326,0.742811,0.782747
17460,0.045793,0.741746,0.782215
17520,0.045793,0.741214,0.782215
17580,0.045261,0.741214,0.781682
17640,0.044728,0.740681,0.781682
17700,0.044728,0.740681,0.781682
17760,0.044728,0.740149,0.781150
17820,0.044196,0.739616,0.780085
17880,0.044196,0.739084,0.778488
17940,0.044196,0.738551,0.776358
18000,0.044196,0.737487,0.774228
18060,0.044196,0.736954,0.772630
18120,0.044196,0.735889,0.771033
18180,0.043663,0.735357,0.769968
18240,0.043131,0.734824,0.768370
18300,0.043131,0.734824,0.767305
18360,0.042598,0.734292,0.766241
18420,0.042598,0.734292,0.765176
18480,0.042598,0.733227,0.764643
18540,0.042066,0.732162,0.763578
18600,0.041533,0.731097,0.763046
18660,0.041001,0.730032,0.762513
18720,0.041001,0.728967,0.761448
18780,0.040468,0.728434,0.760916
18840,0.040468,0.727369,0.760383
18900,0.039936,0.726304,0.759851
18960,0.039403,0.725772,0.759318
19020,0.039403,0.724707,0.758786
19080,0.039403,0.724174,0.758253
19140,0.038871,0.723642,0.757721
19200,0.038871,0.723110,0.757188
19260,0.038871,0.722577,0.757188
19320,0.038338,0.722045,0.756656
19380,0.038338,0.722045,0.756656
19440,0.038338,0.721512,0.756656
19500,0.038338,0.721512,0.756656
19560,0.037806,0.721512,0.756123
19620,0.037806,0.721512,0.756123
19680,0.037806,0.720447,0.756656
19740,0.037806,0.720447,0.756656
19800,0.037273,0.720980,0.756656
19860,0.037273,0.720980,0.756656
19920,0.037273,0.721512,0.756123
19980,0.037273,0.721512,0.755591
20040,0.037273,0.721512,0.755058
20100,0.037273,0.721512,0.754526
20160,0.037273,0.720980,0.753993
20220,0.037273,0.720980,0.753993
20280,0.036741,0.720447,0.753993
20340,0.036741,0.720447,0.753993
20400,0.036741,0.719382,0.753993
20460,0.036741,0.718850,0.753461
20520,0.036741,0.717785,0.753461
20580,0.036209,0.716720,0.752928
20640,0.036209,0.715655,0.752928
20700,0.035676,0.715122,0.752928
20760,0.035676,0.714590,0.752396
20820,0.035676,0.714057,0.751864
20880,0.035144,0.713525,0.751331
20940,0.035144,0.712992,0.751331
21000,0.035144,0.712460,0.750799
21060,0.035144,0.711927,0.750799
21120,0.034611,0.711927,0.750266
21180,0.034611,0.711927,0.749734
21240,0.034611,0.711395,0.748669
21300,0.034079,0.711395,0.747604
21360,0.034079,0.711395,0.746539
21420,0.034079,0.710862,0.744941
21480,0.034079,0.710862,0.743876
21540,0.034079,0.710330,0.742811
21600,0.033546,0.710330,0.742279
21660,0.033546,0.710330,0.741214
21720,0.033546,0.710330,0.740681
21780,0.033546,0.710330,0.740149
21840,0.033546,0.710330,0.739616
21900,0.033546,0.710330,0.739084
21960,0.033014,0.710330,0.738019
22020,0.033014,0.710330,0.738019
22080,0.033014,0.710330,0.737487
22140,0.033014,0.710330,0.736954
22200,0.033014,0.710330,0.736422
22260,0.033014,0.710330,0.735889
22320,0.032481,0.710330,0.735357
22380,0.032481,0.710862,0.734824
22440,0.032481,0.710862,0.734292
22500,0.032481,0.710862,0.734292
22560,0.032481,0.710862,0.733759
22620,0.031949,0.710330,0.733227
22680,0.031949,0.709265,0.732694
22740,0.031949,0.708733,0.732694
22800,0.031949,0.707668,0.732162
22860,0.031949,0.707668,0.731629
22920,0.031949,0.707135,0.731097
22980,0.031949,0.706603,0.730564
23040,0.031416,0.706070,0.730564
23100,0.031416,0.705005,0.730032
23160,0.031416,0.704473,0.729499
23220,0.031416,0.703940,0.729499
23280,0.031416,0.703408,0.728967
23340,0.031416,0.703408,0.728434
23400,0.030884,0.702875,0.728434
23460,0.030884,0.702343,0.727902
23520,0.030884,0.701810,0.727369
23580,0.030884,0.701278,0.727369
23640,0.030884,0.700745,0.726837
23700,0.030884,0.700745,0.726304
23760,0.030351,0.700213,0.726304
23820,0.030351,0.699680,0.725772
23880,0.030351,0.699148,0.725772
23940,0.030351,0.698615,0.725239
24000,0.030351,0.698615,0.724707
24060,0.030351,0.698083,0.724707
24120,0.030351,0.697550,0.724174
24180,0.030351,0.697018,0.724174
24240,0.029819,0.697018,0.723642
24300,0.029819,0.696485,0.723110
24360,0.029819,0.695953,0.723110
24420,0.029819,0.695953,0.723110
24480,0.029819,0.695420,0.722577
24540,0.029819,0.694888,0.722045
24600,0.029819,0.694888,0.722045
24660,0.029286,0.694356,0.721512
24720,0.029819,0.693823,0.721512
24780,0.029286,0.693823,0.720980
24840,0.029286,0.693291,0.720980
24900,0.029286,0.693291,0.720447
24960,0.029286,0.693291,0.720447
25020,0.029286,0.692758,0.719915
25080,0.029286,0.692758,0.719382
25140,0.029286,0.692758,0.719382
25200,0.028754,0.692226,0.718850
25260,0.028754,0.692226,0.718850
25320,0.028754,0.691693,0.718317
25380,0.028754,0.691693,0.718317
25440,0.028754,0.691693,0.717785
25500,0.028754,0.691161,0.717785
25560,0.028754,0.691161,0.717252
25620,0.028754,0.690628,0.717252
25680,0.028221,0.690628,0.716720
25740,0.028221,0.690628,0.716720
25800,0.028221,0.690096,0.716187
25860,0.028221,0.690096,0.716187
25920,0.028221,0.690096,0.716187
25980,0.028221,0.689563,0.715655
26040,0.028221,0.689563,0.715655
26100,0.028221,0.689563,0.715122
26160,0.028221,0.689031,0.715122
26220,0.027689,0.689031,0.714590
26280,0.028221,0.689031,0.714590
26340,0.027689,0.688498,0.714057
26400,0.027689,0.688498,0.714057
26460,0.027689,0.688498,0.714057
26520,0.027689,0.687966,0.713525
26580,0.027689,0.687966,0.713525
26640,0.027689,0.687966,0.712992
26700,0.027156,0.687433,0.712992
26760,0.027689,0.687433,0.712460
26820,0.027156,0.687433,0.712460
26880,0.027156,0.686901,0.712460
26940,0.027156,0.686901,0.711927
27000,0.027156,0.686901,0.711927
27060,0.027156,0.686368,0.711395
27120,0.027156,0.686368,0.711395
27180,0.027156,0.686368,0.710862
27240,0.027156,0.685836,0.710862
27300,0.027156,0.685836,0.710862
27360,0.027156,0.685836,0.710330
27420,0.027156,0.685303,0.710330
27480,0.027156,0.685303,0.709797
27540,0.026624,0.685303,0.709797
27600,0.026624,0.685303,0.709797
27660,0.026624,0.684771,0.709265
27720,0.026624,0.684771,0.709265
27780,0.026624,0.684771,0.708733
27840,0.026624,0.684238,0.708733
27900,0.026624,0.684238,0.708733
27960,0.026624,0.683706,0.708200
28020,0.026624,0.683706,0.708200
28080,0.026624,0.683706,0.707668
28140,0.026624,0.683706,0.707668
28200,0.026091,0.683173,0.707668
28260,0.026091,0.683173,0.707135
28320,0.026624,0.682641,0.707135
28380,0.026091,0.682641,0.706603
28440,0.026091,0.682641,0.706603
28500,0.026091,0.682641,0.706603
28560,0.026091,0.682108,0.706070
28620,0.026091,0.682108,0.706070
28680,0.026091,0.682108,0.706070
28740,0.026091,0.681576,0.705538
28800,0.026091,0.681576,0.705538
28860,0.026091,0.681576,0.705005
28920,0.026091,0.681576,0.705005
28980,0.026091,0.681043,0.705005
29040,0.025559,0.681043,0.704473
29100,0.025559,0.681043,0.704473
29160,0.025559,0.680511,0.704473
29220,0.025559,0.680511,0.703940
29280,0.025559,0.680511,0.703940
29340,0.025559,0.680511,0.703408
29400,0.025559,0.679979,0.703408
29460,0.025559,0.679979,0.703408
29520,0.025559,0.679979,0.702875
29580,0.025559,0.679446,0.702875
29640,0.025026,0.679446,0.702875
29700,0.025026,0.679446,0.702343
29760,0.025026,0.679446,0.702343
29820,0.025026,0.678914,0.702343
29880,0.025026,0.678914,0.701810
29940,0.025026,0.678914,0.701810
30000,0.025026,0.678914,0.701810
30060,0.025026,0.678381,0.701278
30120,0.025026,0.678381,0.701278
30180,0.025026,0.678381,0.701278
30240,0.025026,0.678381,0.700745
30300,0.025026,0.677849,0.700745
30360,0.025026,0.677849,0.700745
30420,0.024494,0.677849,0.700213
30480,0.025026,0.677316,0.700213
30540,0.024494,0.677316,0.699680
30600,0.024494,0.677316,0.699680
30660,0.024494,0.677316,0.699680
30720,0.024494,0.676784,0.699148
30780,0.024494,0.676784,0.699148
30840,0.024494,0.676784,0.699148
30900,0.024494,0.676784,0.698615
30960,0.024494,0.676251,0.698615
31020,0.024494,0.676251,0.698615
31080,0.024494,0.676251,0.698615
31140,0.024494,0.676251,0.698083
31200,0.023961,0.675719,0.698083
31260,0.024494,0.675719,0.698083
31320,0.024494,0.675719,0.697550
31380,0.023961,0.675719,0.697550
31440,0.023961,0.675186,0.697550
31500,0.023961,0.675186,0.697018
31560,0.023961,0.675186,0.697018
31620,0.023961,0.675186,0.697018
31680,0.023961,0.674654,0.696485
31740,0.023961,0.674654,0.696485
31800,0.023961,0.674654,0.696485
31860,0.023961,0.674121,0.696485
31920,0.023961,0.674121,0.695953
31980,0.023961,0.674121,0.695953
32040,0.023961,0.674121,0.695953
32100,0.023961,0.673589,0.695420
32160,0.023429,0.673589,0.695420
32220,0.023961,0.673589,0.695420
32280,0.023429,0.673589,0.694888
32340,0.023429,0.673056,0.694888
32400,0.023429,0.673056,0.694888
32460,0.023429,0.673056,0.694888
32520,0.023429,0.673056,0.694356
32580,0.023429,0.672524,0.694356
32640,0.023429,0.672524,0.694356
32700,0.023429,0.672524,0.694356
32760,0.023429,0.672524,0.693823
32820,0.023429,0.671991,0.693823
32880,0.023429,0.671991,0.693823
32940,0.023429,0.671991,0.693291
33000,0.023429,0.671991,0.693291
33060,0.023429,0.671459,0.693291
33120,0.023429,0.671459,0.693291
33180,0.023429,0.671459,0.692758
33240,0.022896,0.671459,0.692758
33300,0.022896,0.670926,0.692758
33360,0.022896,0.670926,0.692758
33420,0.022896,0.670926,0.692226
33480,0.022896,0.670926,0.692226
33540,0.022896,0.670394,0.692226
33600,0.022896,0.670394,0.691693
33660,0.022896,0.670394,0.691693
33720,0.022896,0.670394,0.691693
33780,0.022896,0.669861,0.691693
33840,0.022896,0.669861,0.691161
33900,0.022896,0.669861,0.691161
33960,0.022896,0.669861,0.691161
34020,0.022896,0.669329,0.691161
34080,0.022896,0.669329,0.690628
34140,0.022364,0.669329,0.690628
34200,0.022896,0.669329,0.690628
34260,0.022896,0.668796,0.690628
34320,0.022364,0.668796,0.690096
34380,0.022896,0.668796,0.690096
34440,0.022896,0.668796,0.690096
34500,0.022896,0.668796,0.690096
34560,0.022364,0.668264,0.689563
34620,0.022364,0.668264,0.689563
34680,0.022364,0.668264,0.689563
34740,0.022364,0.668264,0.689563
34800,0.022364,0.667731,0.689031
34860,0.022364,0.667731,0.689031
34920,0.022364,0.667731,0.689031
34980,0.022364,0.667731,0.689031
35040,0.022364,0.667731,0.688498
35100,0.022364,0.667199,0.688498
35160,0.022364,0.667199,0.688498
35220,0.022364,0.667199,0.688498
